339.89	0.00
340.27	269.00
340.65	270.00
341.03	270.00
341.41	267.00
341.79	312.00
342.18	280.00
342.56	280.00
342.94	280.00
343.32	284.00
343.70	288.00
344.08	279.00
344.46	280.00
344.84	292.00
345.22	280.00
345.60	286.00
345.98	356.00
346.36	284.00
346.74	293.00
347.12	285.00
347.50	348.00
347.89	282.00
348.27	282.00
348.65	293.00
349.03	279.00
349.41	297.00
349.79	284.00
350.17	306.00
350.55	331.00
350.93	331.00
351.31	332.00
351.69	336.00
352.07	337.00
352.45	331.00
352.83	330.00
353.21	319.00
353.59	337.00
353.97	325.00
354.35	325.00
354.72	321.00
355.10	328.00
355.48	326.00
355.86	321.00
356.24	317.00
356.62	314.00
357.00	399.00
357.38	313.00
357.76	315.00
358.14	323.00
358.52	320.00
358.90	325.00
359.28	314.00
359.66	315.00
360.04	312.00
360.41	317.00
360.79	309.00
361.17	320.00
361.55	313.00
361.93	312.00
362.31	314.00
362.69	326.00
363.07	320.00
363.45	417.00
363.82	313.00
364.20	311.00
364.58	305.00
364.96	325.00
365.34	330.00
365.72	314.00
366.10	314.00
366.47	311.00
366.85	317.00
367.23	308.00
367.61	317.00
367.99	323.00
368.37	309.00
368.74	307.00
369.12	310.00
369.50	309.00
369.88	400.00
370.26	387.00
370.64	315.00
371.01	317.00
371.39	320.00
371.77	313.00
372.15	316.00
372.52	312.00
372.90	320.00
373.28	334.00
373.66	314.00
374.04	305.00
374.41	314.00
374.79	389.00
375.17	308.00
375.55	312.00
375.92	338.00
376.30	319.00
376.68	306.00
377.06	310.00
377.43	332.00
377.81	308.00
378.19	311.00
378.56	308.00
378.94	313.00
379.32	317.00
379.70	307.00
380.07	325.00
380.45	318.00
380.83	307.00
381.20	320.00
381.58	309.00
381.96	363.00
382.33	327.00
382.71	316.00
383.09	315.00
383.46	316.00
383.84	316.00
384.22	309.00
384.59	309.00
384.97	316.00
385.35	314.00
385.72	318.00
386.10	309.00
386.48	320.00
386.85	320.00
387.23	313.00
387.60	316.00
387.98	314.00
388.36	315.00
388.73	310.00
389.11	316.00
389.49	305.00
389.86	315.00
390.24	376.00
390.61	328.00
390.99	350.00
391.36	322.00
391.74	312.00
392.12	314.00
392.49	317.00
392.87	318.00
393.24	316.00
393.62	305.00
393.99	318.00
394.37	318.00
394.75	317.00
395.12	312.00
395.50	315.00
395.87	316.00
396.25	309.00
396.62	333.00
397.00	336.00
397.37	310.00
397.75	335.00
398.12	333.00
398.50	312.00
398.87	313.00
399.25	306.00
399.62	318.00
400.00	324.00
400.37	310.00
400.75	387.00
401.12	315.00
401.50	307.00
401.87	324.00
402.25	462.00
402.62	316.00
403.00	320.00
403.37	315.00
403.75	316.00
404.12	318.00
404.49	314.00
404.87	321.00
405.24	318.00
405.62	312.00
405.99	315.00
406.37	318.00
406.74	314.00
407.11	319.00
407.49	331.00
407.86	437.00
408.24	314.00
408.61	322.00
408.98	312.00
409.36	310.00
409.73	317.00
410.11	318.00
410.48	323.00
410.85	313.00
411.23	313.00
411.60	331.00
411.97	314.00
412.35	325.00
412.72	318.00
413.10	313.00
413.47	314.00
413.84	323.00
414.22	323.00
414.59	312.00
414.96	321.00
415.34	376.00
415.71	320.00
416.08	312.00
416.45	329.00
416.83	317.00
417.20	333.00
417.57	311.00
417.95	319.00
418.32	315.00
418.69	313.00
419.07	308.00
419.44	312.00
419.81	328.00
420.18	320.00
420.56	328.00
420.93	310.00
421.30	309.00
421.67	324.00
422.05	312.00
422.42	333.00
422.79	315.00
423.16	317.00
423.54	319.00
423.91	308.00
424.28	313.00
424.65	316.00
425.03	325.00
425.40	325.00
425.77	316.00
426.14	322.00
426.51	317.00
426.89	315.00
427.26	315.00
427.63	315.00
428.00	332.00
428.37	311.00
428.75	318.00
429.12	314.00
429.49	315.00
429.86	322.00
430.23	319.00
430.60	320.00
430.98	313.00
431.35	322.00
431.72	321.00
432.09	310.00
432.46	317.00
432.83	321.00
433.20	318.00
433.58	338.00
433.95	317.00
434.32	337.00
434.69	324.00
435.06	328.00
435.43	318.00
435.80	322.00
436.17	337.00
436.54	320.00
436.92	328.00
437.29	325.00
437.66	321.00
438.03	323.00
438.40	337.00
438.77	316.00
439.14	317.00
439.51	318.00
439.88	322.00
440.25	320.00
440.62	336.00
440.99	328.00
441.36	326.00
441.73	328.00
442.10	321.00
442.47	323.00
442.84	325.00
443.21	322.00
443.58	332.00
443.96	331.00
444.33	324.00
444.70	314.00
445.07	328.00
445.44	322.00
445.81	384.00
446.17	336.00
446.54	335.00
446.91	323.00
447.28	322.00
447.65	351.00
448.02	322.00
448.39	322.00
448.76	326.00
449.13	328.00
449.50	324.00
449.87	322.00
450.24	321.00
450.61	395.00
450.98	333.00
451.35	326.00
451.72	327.00
452.09	322.00
452.46	339.00
452.83	344.00
453.19	322.00
453.56	330.00
453.93	318.00
454.30	341.00
454.67	333.00
455.04	326.00
455.41	329.00
455.78	327.00
456.15	346.00
456.51	352.00
456.88	327.00
457.25	323.00
457.62	326.00
457.99	324.00
458.36	338.00
458.73	329.00
459.09	384.00
459.46	327.00
459.83	332.00
460.20	336.00
460.57	330.00
460.94	332.00
461.30	330.00
461.67	330.00
462.04	382.00
462.41	323.00
462.78	336.00
463.14	339.00
463.51	338.00
463.88	335.00
464.25	334.00
464.62	328.00
464.98	329.00
465.35	339.00
465.72	341.00
466.09	334.00
466.45	335.00
466.82	343.00
467.19	322.00
467.56	329.00
467.92	333.00
468.29	332.00
468.66	334.00
469.03	343.00
469.39	336.00
469.76	330.00
470.13	367.00
470.50	326.00
470.86	331.00
471.23	331.00
471.60	330.00
471.96	339.00
472.33	335.00
472.70	333.00
473.06	345.00
473.43	337.00
473.80	348.00
474.16	338.00
474.53	338.00
474.90	333.00
475.26	329.00
475.63	339.00
476.00	338.00
476.36	340.00
476.73	349.00
477.10	343.00
477.46	338.00
477.83	335.00
478.20	337.00
478.56	339.00
478.93	367.00
479.29	341.00
479.66	346.00
480.03	363.00
480.39	352.00
480.76	342.00
481.12	361.00
481.49	337.00
481.86	344.00
482.22	353.00
482.59	351.00
482.95	348.00
483.32	344.00
483.68	342.00
484.05	338.00
484.42	385.00
484.78	333.00
485.15	344.00
485.51	352.00
485.88	350.00
486.24	345.00
486.61	362.00
486.97	346.00
487.34	355.00
487.70	348.00
488.07	345.00
488.43	352.00
488.80	356.00
489.16	347.00
489.53	355.00
489.89	352.00
490.26	345.00
490.62	343.00
490.99	360.00
491.35	348.00
491.72	364.00
492.08	346.00
492.45	354.00
492.81	358.00
493.18	361.00
493.54	357.00
493.90	365.00
494.27	378.00
494.63	360.00
495.00	346.00
495.36	357.00
495.73	391.00
496.09	358.00
496.45	372.00
496.82	371.00
497.18	354.00
497.55	366.00
497.91	366.00
498.27	361.00
498.64	356.00
499.00	368.00
499.37	358.00
499.73	369.00
500.09	360.00
500.46	360.00
500.82	357.00
501.18	368.00
501.55	361.00
501.91	369.00
502.28	371.00
502.64	365.00
503.00	360.00
503.37	357.00
503.73	366.00
504.09	357.00
504.46	379.00
504.82	362.00
505.18	363.00
505.54	365.00
505.91	368.00
506.27	375.00
506.63	369.00
507.00	377.00
507.36	365.00
507.72	365.00
508.08	371.00
508.45	379.00
508.81	372.00
509.17	376.00
509.54	375.00
509.90	385.00
510.26	378.00
510.62	377.00
510.99	370.00
511.35	381.00
511.71	367.00
512.07	373.00
512.43	378.00
512.80	382.00
513.16	382.00
513.52	380.00
513.88	373.00
514.25	381.00
514.61	368.00
514.97	376.00
515.33	372.00
515.69	374.00
516.05	386.00
516.42	377.00
516.78	400.00
517.14	392.00
517.50	383.00
517.86	382.00
518.23	392.00
518.59	385.00
518.95	387.00
519.31	393.00
519.67	381.00
520.03	378.00
520.39	381.00
520.75	375.00
521.12	389.00
521.48	393.00
521.84	382.00
522.20	392.00
522.56	394.00
522.92	386.00
523.28	377.00
523.64	384.00
524.00	379.00
524.37	429.00
524.73	393.00
525.09	396.00
525.45	410.00
525.81	402.00
526.17	391.00
526.53	385.00
526.89	379.00
527.25	395.00
527.61	392.00
527.97	387.00
528.33	382.00
528.69	393.00
529.05	381.00
529.41	389.00
529.77	388.00
530.13	397.00
530.49	396.00
530.85	390.00
531.21	381.00
531.57	395.00
531.93	386.00
532.29	389.00
532.65	380.00
533.01	396.00
533.37	389.00
533.73	392.00
534.09	388.00
534.45	381.00
534.81	386.00
535.17	392.00
535.53	394.00
535.89	392.00
536.25	395.00
536.61	390.00
536.97	393.00
537.33	387.00
537.69	393.00
538.04	386.00
538.40	394.00
538.76	394.00
539.12	382.00
539.48	392.00
539.84	394.00
540.20	397.00
540.56	399.00
540.92	396.00
541.28	391.00
541.63	399.00
541.99	389.00
542.35	393.00
542.71	388.00
543.07	386.00
543.43	396.00
543.79	420.00
544.14	403.00
544.50	389.00
544.86	394.00
545.22	400.00
545.58	399.00
545.94	399.00
546.29	393.00
546.65	397.00
547.01	418.00
547.37	411.00
547.73	431.00
548.08	403.00
548.44	410.00
548.80	396.00
549.16	399.00
549.52	401.00
549.87	404.00
550.23	405.00
550.59	399.00
550.95	402.00
551.30	411.00
551.66	405.00
552.02	402.00
552.38	408.00
552.73	394.00
553.09	396.00
553.45	413.00
553.81	414.00
554.16	399.00
554.52	409.00
554.88	414.00
555.23	404.00
555.59	411.00
555.95	401.00
556.31	406.00
556.66	409.00
557.02	412.00
557.38	406.00
557.73	401.00
558.09	406.00
558.45	402.00
558.80	407.00
559.16	406.00
559.52	399.00
559.87	397.00
560.23	407.00
560.59	419.00
560.94	411.00
561.30	411.00
561.65	407.00
562.01	408.00
562.37	407.00
562.72	408.00
563.08	409.00
563.43	406.00
563.79	408.00
564.15	412.00
564.50	405.00
564.86	462.00
565.21	443.00
565.57	473.00
565.93	426.00
566.28	494.00
566.64	405.00
566.99	417.00
567.35	408.00
567.70	420.00
568.06	411.00
568.41	411.00
568.77	428.00
569.13	422.00
569.48	413.00
569.84	415.00
570.19	406.00
570.55	413.00
570.90	432.00
571.26	410.00
571.61	419.00
571.97	406.00
572.32	409.00
572.68	411.00
573.03	407.00
573.39	414.00
573.74	426.00
574.10	420.00
574.45	418.00
574.81	420.00
575.16	410.00
575.51	411.00
575.87	420.00
576.22	416.00
576.58	421.00
576.93	411.00
577.29	423.00
577.64	420.00
577.99	417.00
578.35	408.00
578.70	421.00
579.06	403.00
579.41	418.00
579.77	413.00
580.12	413.00
580.47	404.00
580.83	407.00
581.18	415.00
581.53	403.00
581.89	421.00
582.24	439.00
582.60	430.00
582.95	413.00
583.30	410.00
583.66	427.00
584.01	408.00
584.36	412.00
584.72	413.00
585.07	406.00
585.42	453.00
585.78	414.00
586.13	415.00
586.48	408.00
586.84	413.00
587.19	417.00
587.54	412.00
587.90	425.00
588.25	459.00
588.60	430.00
588.95	411.00
589.31	409.00
589.66	415.00
590.01	426.00
590.36	415.00
590.72	419.00
591.07	418.00
591.42	409.00
591.78	417.00
592.13	409.00
592.48	413.00
592.83	426.00
593.18	418.00
593.54	415.00
593.89	411.00
594.24	414.00
594.59	420.00
594.95	422.00
595.30	417.00
595.65	419.00
596.00	419.00
596.35	423.00
596.71	428.00
597.06	419.00
597.41	427.00
597.76	426.00
598.11	417.00
598.46	417.00
598.82	430.00
599.17	416.00
599.52	413.00
599.87	433.00
600.22	418.00
600.57	418.00
600.92	424.00
601.27	424.00
601.63	419.00
601.98	417.00
602.33	430.00
602.68	421.00
603.03	415.00
603.38	417.00
603.73	424.00
604.08	413.00
604.43	404.00
604.79	433.00
605.14	425.00
605.49	410.00
605.84	417.00
606.19	415.00
606.54	475.00
606.89	415.00
607.24	424.00
607.59	421.00
607.94	454.00
608.29	417.00
608.64	415.00
608.99	419.00
609.34	426.00
609.69	427.00
610.04	418.00
610.39	421.00
610.74	431.00
611.09	414.00
611.44	425.00
611.79	425.00
612.14	431.00
612.49	425.00
612.84	437.00
613.19	424.00
613.54	435.00
613.89	422.00
614.24	427.00
614.59	426.00
614.94	430.00
615.29	426.00
615.64	439.00
615.99	421.00
616.34	418.00
616.69	426.00
617.03	428.00
617.38	428.00
617.73	437.00
618.08	441.00
618.43	522.00
618.78	425.00
619.13	438.00
619.48	429.00
619.83	417.00
620.18	449.00
620.52	434.00
620.87	427.00
621.22	425.00
621.57	418.00
621.92	432.00
622.27	425.00
622.62	428.00
622.96	433.00
623.31	437.00
623.66	433.00
624.01	433.00
624.36	462.00
624.71	432.00
625.05	443.00
625.40	427.00
625.75	423.00
626.10	423.00
626.45	442.00
626.79	429.00
627.14	427.00
627.49	433.00
627.84	430.00
628.18	423.00
628.53	422.00
628.88	424.00
629.23	431.00
629.58	421.00
629.92	431.00
630.27	434.00
630.62	426.00
630.97	436.00
631.31	429.00
631.66	507.00
632.01	433.00
632.35	419.00
632.70	430.00
633.05	422.00
633.40	418.00
633.74	433.00
634.09	434.00
634.44	441.00
634.78	422.00
635.13	433.00
635.48	428.00
635.82	431.00
636.17	429.00
636.52	432.00
636.86	426.00
637.21	419.00
637.56	421.00
637.90	443.00
638.25	426.00
638.60	431.00
638.94	438.00
639.29	461.00
639.63	426.00
639.98	424.00
640.33	426.00
640.67	425.00
641.02	430.00
641.36	426.00
641.71	436.00
642.06	428.00
642.40	420.00
642.75	429.00
643.09	428.00
643.44	430.00
643.79	425.00
644.13	431.00
644.48	421.00
644.82	425.00
645.17	422.00
645.51	426.00
645.86	421.00
646.20	415.00
646.55	427.00
646.89	425.00
647.24	446.00
647.58	428.00
647.93	420.00
648.27	424.00
648.62	418.00
648.96	422.00
649.31	439.00
649.65	427.00
650.00	425.00
650.34	418.00
650.69	431.00
651.03	424.00
651.38	415.00
651.72	420.00
652.07	421.00
652.41	416.00
652.76	412.00
653.10	429.00
653.44	442.00
653.79	415.00
654.13	429.00
654.48	433.00
654.82	420.00
655.17	416.00
655.51	420.00
655.85	427.00
656.20	420.00
656.54	430.00
656.89	423.00
657.23	420.00
657.57	421.00
657.92	423.00
658.26	416.00
658.60	432.00
658.95	424.00
659.29	423.00
659.63	416.00
659.98	428.00
660.32	422.00
660.66	423.00
661.01	419.00
661.35	435.00
661.69	424.00
662.04	415.00
662.38	422.00
662.72	425.00
663.07	423.00
663.41	429.00
663.75	439.00
664.10	424.00
664.44	426.00
664.78	433.00
665.12	429.00
665.47	435.00
665.81	485.00
666.15	435.00
666.49	427.00
666.84	426.00
667.18	431.00
667.52	426.00
667.86	428.00
668.21	431.00
668.55	429.00
668.89	445.00
669.23	419.00
669.58	424.00
669.92	424.00
670.26	456.00
670.60	427.00
670.94	426.00
671.29	439.00
671.63	429.00
671.97	414.00
672.31	432.00
672.65	434.00
672.99	417.00
673.34	427.00
673.68	425.00
674.02	428.00
674.36	425.00
674.70	419.00
675.04	431.00
675.38	424.00
675.73	440.00
676.07	418.00
676.41	438.00
676.75	424.00
677.09	434.00
677.43	430.00
677.77	428.00
678.11	437.00
678.45	422.00
678.79	435.00
679.14	433.00
679.48	433.00
679.82	421.00
680.16	427.00
680.50	427.00
680.84	425.00
681.18	431.00
681.52	435.00
681.86	446.00
682.20	432.00
682.54	443.00
682.88	432.00
683.22	440.00
683.56	434.00
683.90	441.00
684.24	427.00
684.58	431.00
684.92	469.00
685.26	438.00
685.60	433.00
685.94	433.00
686.28	467.00
686.62	432.00
686.96	429.00
687.30	428.00
687.64	422.00
687.98	441.00
688.32	426.00
688.66	450.00
689.00	437.00
689.34	441.00
689.68	430.00
690.02	428.00
690.36	429.00
690.69	428.00
691.03	436.00
691.37	435.00
691.71	440.00
692.05	425.00
692.39	435.00
692.73	426.00
693.07	439.00
693.41	433.00
693.75	433.00
694.08	427.00
694.42	431.00
694.76	451.00
695.10	439.00
695.44	433.00
695.78	429.00
696.12	424.00
696.45	449.00
696.79	441.00
697.13	440.00
697.47	432.00
697.81	430.00
698.14	442.00
698.48	437.00
698.82	427.00
699.16	444.00
699.50	442.00
699.83	445.00
700.17	439.00
700.51	436.00
700.85	442.00
701.19	453.00
701.52	436.00
701.86	442.00
702.20	444.00
702.54	431.00
702.87	444.00
703.21	437.00
703.55	439.00
703.89	437.00
704.22	440.00
704.56	445.00
704.90	446.00
705.23	439.00
705.57	438.00
705.91	479.00
706.25	443.00
706.58	440.00
706.92	434.00
707.26	459.00
707.59	440.00
707.93	541.00
708.27	448.00
708.60	456.00
708.94	450.00
709.28	449.00
709.61	462.00
709.95	458.00
710.28	455.00
710.62	446.00
710.96	459.00
711.29	479.00
711.63	458.00
711.97	441.00
712.30	450.00
712.64	458.00
712.97	474.00
713.31	453.00
713.65	455.00
713.98	447.00
714.32	453.00
714.65	459.00
714.99	462.00
715.32	453.00
715.66	453.00
716.00	456.00
716.33	477.00
716.67	544.00
717.00	463.00
717.34	462.00
717.67	468.00
718.01	463.00
718.34	460.00
718.68	469.00
719.01	458.00
719.35	473.00
719.68	475.00
720.02	460.00
720.35	465.00
720.69	454.00
721.02	479.00
721.36	487.00
721.69	471.00
722.03	473.00
722.36	466.00
722.70	491.00
723.03	469.00
723.37	475.00
723.70	483.00
724.03	476.00
724.37	486.00
724.70	474.00
725.04	481.00
725.37	481.00
725.71	486.00
726.04	479.00
726.37	490.00
726.71	484.00
727.04	485.00
727.38	484.00
727.71	482.00
728.04	480.00
728.38	497.00
728.71	491.00
729.04	496.00
729.38	478.00
729.71	483.00
730.05	489.00
730.38	487.00
730.71	495.00
731.05	495.00
731.38	492.00
731.71	499.00
732.05	493.00
732.38	495.00
732.71	500.00
733.04	499.00
733.38	505.00
733.71	501.00
734.04	496.00
734.38	502.00
734.71	504.00
735.04	514.00
735.37	508.00
735.71	527.00
736.04	505.00
736.37	508.00
736.71	517.00
737.04	507.00
737.37	507.00
737.70	511.00
738.03	511.00
738.37	502.00
738.70	515.00
739.03	514.00
739.36	512.00
739.70	513.00
740.03	519.00
740.36	537.00
740.69	519.00
741.02	517.00
741.36	546.00
741.69	529.00
742.02	530.00
742.35	522.00
742.68	519.00
743.01	520.00
743.35	531.00
743.68	537.00
744.01	525.00
744.34	521.00
744.67	530.00
745.00	525.00
745.33	533.00
745.66	539.00
746.00	548.00
746.33	523.00
746.66	551.00
746.99	535.00
747.32	534.00
747.65	544.00
747.98	550.00
748.31	532.00
748.64	546.00
748.97	533.00
749.30	539.00
749.64	1486.00
749.97	532.00
750.30	536.00
750.63	538.00
750.96	550.00
751.29	546.00
751.62	560.00
751.95	541.00
752.28	552.00
752.61	544.00
752.94	557.00
753.27	549.00
753.60	555.00
753.93	577.00
754.26	551.00
754.59	545.00
754.92	555.00
755.25	552.00
755.58	545.00
755.91	552.00
756.24	549.00
756.57	542.00
756.90	542.00
757.23	563.00
757.55	556.00
757.88	555.00
758.21	547.00
758.54	551.00
758.87	563.00
759.20	555.00
759.53	557.00
759.86	538.00
760.19	560.00
760.52	562.00
760.85	560.00
761.18	557.00
761.50	551.00
761.83	550.00
762.16	559.00
762.49	552.00
762.82	565.00
763.15	555.00
763.48	551.00
763.80	562.00
764.13	551.00
764.46	572.00
764.79	559.00
765.12	553.00
765.45	559.00
765.77	555.00
766.10	550.00
766.43	555.00
766.76	553.00
767.09	1355.00
767.41	538.00
767.74	544.00
768.07	557.00
768.40	562.00
768.73	555.00
769.05	554.00
769.38	563.00
769.71	565.00
770.04	549.00
770.36	564.00
770.69	549.00
771.02	551.00
771.34	550.00
771.67	545.00
772.00	557.00
772.33	535.00
772.65	552.00
772.98	543.00
773.31	558.00
773.63	542.00
773.96	533.00
774.29	555.00
774.62	567.00
774.94	556.00
775.27	553.00
775.60	547.00
775.92	543.00
776.25	541.00
776.58	536.00
776.90	623.00
777.23	573.00
777.55	540.00
777.88	539.00
778.21	535.00
778.53	599.00
778.86	548.00
779.19	548.00
779.51	553.00
779.84	549.00
780.16	546.00
780.49	532.00
780.81	527.00
781.14	534.00
781.47	537.00
781.79	534.00
782.12	554.00
782.44	538.00
782.77	539.00
783.09	540.00
783.42	542.00
783.75	530.00
784.07	534.00
784.40	526.00
784.72	534.00
785.05	543.00
785.37	526.00
785.70	533.00
786.02	528.00
786.35	538.00
786.67	526.00
787.00	523.00
787.32	585.00
787.65	540.00
787.97	520.00
788.30	539.00
788.62	518.00
788.94	531.00
789.27	515.00
789.59	514.00
789.92	511.00
790.24	516.00
790.57	516.00
790.89	520.00
791.22	510.00
791.54	515.00
791.86	517.00
792.19	517.00
792.51	522.00
792.84	531.00
793.16	507.00
793.48	521.00
793.81	506.00
794.13	512.00
794.45	501.00
794.78	513.00
795.10	498.00
795.43	506.00
795.75	505.00
796.07	508.00
796.40	543.00
796.72	560.00
797.04	493.00
797.37	518.00
797.69	504.00
798.01	519.00
798.34	526.00
798.66	494.00
798.98	489.00
799.30	497.00
799.63	521.00
799.95	548.00
800.27	492.00
800.60	506.00
800.92	505.00
801.24	478.00
801.56	491.00
801.89	491.00
802.21	496.00
802.53	503.00
802.85	487.00
803.18	492.00
803.50	478.00
803.82	485.00
804.14	487.00
804.46	481.00
804.79	481.00
805.11	485.00
805.43	483.00
805.75	485.00
806.07	483.00
806.40	484.00
806.72	483.00
807.04	527.00
807.36	469.00
807.68	476.00
808.00	492.00
808.33	474.00
808.65	487.00
808.97	473.00
809.29	478.00
809.61	472.00
809.93	491.00
810.25	487.00
810.58	481.00
810.90	478.00
811.22	477.00
811.54	478.00
811.86	479.00
812.18	462.00
812.50	469.00
812.82	465.00
813.14	476.00
813.46	492.00
813.78	462.00
814.10	468.00
814.43	476.00
814.75	464.00
815.07	469.00
815.39	468.00
815.71	491.00
816.03	483.00
816.35	462.00
816.67	463.00
816.99	460.00
817.31	474.00
817.63	462.00
817.95	463.00
818.27	457.00
818.59	468.00
818.91	465.00
819.23	483.00
819.55	462.00
819.87	461.00
820.19	455.00
820.51	462.00
820.83	460.00
821.14	456.00
821.46	453.00
821.78	452.00
822.10	451.00
822.42	455.00
822.74	452.00
823.06	462.00
823.38	449.00
823.70	446.00
824.02	450.00
824.34	449.00
824.66	439.00
824.97	486.00
825.29	449.00
825.61	461.00
825.93	452.00
826.25	465.00
826.57	457.00
826.89	453.00
827.20	445.00
827.52	452.00
827.84	458.00
828.16	464.00
828.48	444.00
828.80	448.00
829.11	454.00
829.43	464.00
829.75	513.00
830.07	455.00
830.39	438.00
830.70	456.00
831.02	448.00
831.34	460.00
831.66	449.00
831.98	441.00
832.29	455.00
832.61	446.00
832.93	443.00
833.25	478.00
833.56	466.00
833.88	450.00
834.20	455.00
834.52	444.00
834.83	463.00
835.15	442.00
835.47	447.00
835.78	449.00
836.10	445.00
836.42	451.00
836.73	451.00
837.05	442.00
837.37	445.00
837.68	459.00
838.00	484.00
838.32	451.00
838.63	445.00
838.95	458.00
839.27	442.00
839.58	456.00
839.90	440.00
840.22	442.00
840.53	445.00
840.85	445.00
841.17	440.00
841.48	448.00
841.80	452.00
842.11	449.00
842.43	441.00
842.75	440.00
843.06	444.00
843.38	442.00
843.69	445.00
844.01	451.00
844.32	435.00
844.64	445.00
844.96	450.00
845.27	441.00
845.59	445.00
845.90	463.00
846.22	450.00
846.53	432.00
846.85	443.00
847.16	446.00
847.48	445.00
847.79	452.00
848.11	438.00
848.42	432.00
848.74	433.00
849.05	435.00
849.37	440.00
849.68	428.00
850.00	443.00
850.31	438.00
850.63	453.00
850.94	442.00
851.26	436.00
851.57	450.00
851.88	435.00
852.20	451.00
852.51	438.00
852.83	441.00
853.14	434.00
853.46	452.00
853.77	432.00
854.08	441.00
854.40	431.00
854.71	455.00
855.03	448.00
855.34	458.00
855.65	449.00
855.97	448.00
856.28	439.00
856.59	450.00
856.91	432.00
857.22	430.00
857.53	436.00
857.85	424.00
858.16	438.00
858.47	452.00
858.79	440.00
859.10	452.00
859.41	446.00
859.73	438.00
860.04	441.00
860.35	433.00
860.67	438.00
860.98	415.00
861.29	427.00
861.60	433.00
861.92	436.00
862.23	427.00
862.54	430.00
862.86	423.00
863.17	436.00
863.48	431.00
863.79	427.00
864.10	419.00
864.42	433.00
864.73	427.00
865.04	445.00
865.35	434.00
865.67	443.00
865.98	426.00
866.29	424.00
866.60	419.00
866.91	436.00
867.23	428.00
867.54	434.00
867.85	431.00
868.16	421.00
868.47	429.00
868.78	414.00
869.09	423.00
869.41	448.00
869.72	413.00
870.03	418.00
870.34	418.00
870.65	452.00
870.96	416.00
871.27	424.00
871.58	428.00
871.90	425.00
872.21	417.00
872.52	408.00
872.83	415.00
873.14	416.00
873.45	416.00
873.76	458.00
874.07	417.00
874.38	407.00
874.69	417.00
875.00	422.00
875.31	414.00
875.62	412.00
875.93	420.00
876.24	425.00
876.55	425.00
876.86	419.00
877.17	412.00
877.48	411.00
877.79	410.00
878.10	422.00
878.41	423.00
878.72	415.00
879.03	411.00
879.34	409.00
879.65	404.00
879.96	431.00
880.27	405.00
880.58	428.00
880.89	407.00
881.20	408.00
881.51	398.00
881.82	400.00
882.13	461.00
882.44	411.00
882.75	399.00
883.06	424.00
883.37	395.00
883.67	400.00
883.98	401.00
884.29	394.00
884.60	401.00
884.91	396.00
885.22	450.00
885.53	407.00
885.84	410.00
886.14	405.00
886.45	398.00
886.76	407.00
887.07	399.00
887.38	398.00
887.69	426.00
887.99	401.00
888.30	403.00
888.61	396.00
888.92	394.00
889.23	389.00
889.53	397.00
889.84	395.00
890.15	398.00
890.46	449.00
890.77	415.00
891.07	395.00
891.38	391.00
891.69	395.00
892.00	387.00
892.30	400.00
892.61	391.00
892.92	390.00
893.23	394.00
893.53	400.00
893.84	392.00
894.15	384.00
894.45	400.00
894.76	386.00
895.07	393.00
895.38	388.00
895.68	403.00
895.99	398.00
896.30	387.00
896.60	389.00
896.91	390.00
897.22	392.00
897.52	393.00
897.83	399.00
898.14	388.00
898.44	382.00
898.75	382.00
899.05	390.00
899.36	382.00
899.67	390.00
899.97	385.00
900.28	445.00
900.58	424.00
900.89	396.00
901.20	384.00
901.50	383.00
901.81	384.00
902.11	405.00
902.42	384.00
902.73	400.00
903.03	390.00
903.34	380.00
903.64	385.00
903.95	393.00
904.25	384.00
904.56	381.00
904.86	375.00
905.17	381.00
905.47	376.00
905.78	383.00
906.08	391.00
906.39	379.00
906.69	378.00
907.00	403.00
907.30	392.00
907.61	381.00
907.91	387.00
908.22	373.00
908.52	385.00
908.83	386.00
909.13	377.00
909.44	378.00
909.74	397.00
910.04	382.00
910.35	424.00
910.65	384.00
910.96	368.00
911.26	397.00
911.56	378.00
911.87	386.00
912.17	381.00
912.48	368.00
912.78	387.00
913.08	371.00
913.39	418.00
913.69	373.00
914.00	377.00
914.30	371.00
914.60	381.00
914.91	375.00
915.21	367.00
915.51	364.00
915.82	371.00
916.12	376.00
916.42	376.00
916.73	371.00
917.03	422.00
917.33	362.00
917.63	371.00
917.94	373.00
918.24	366.00
918.54	366.00
918.85	368.00
919.15	370.00
919.45	375.00
919.75	357.00
920.06	365.00
920.36	369.00
920.66	361.00
920.96	368.00
921.27	368.00
921.57	362.00
921.87	379.00
922.17	362.00
922.47	372.00
922.78	375.00
923.08	367.00
923.38	362.00
923.68	362.00
923.98	357.00
924.29	365.00
924.59	360.00
924.89	361.00
925.19	360.00
925.49	359.00
925.79	364.00
926.10	363.00
926.40	361.00
926.70	366.00
927.00	415.00
927.30	363.00
927.60	369.00
927.90	363.00
928.20	360.00
928.50	357.00
928.81	356.00
929.11	359.00
929.41	354.00
929.71	350.00
930.01	355.00
930.31	358.00
930.61	357.00
930.91	344.00
931.21	358.00
931.51	354.00
931.81	364.00
932.11	346.00
932.41	352.00
932.71	354.00
933.01	350.00
933.31	364.00
933.61	352.00
933.91	351.00
934.21	359.00
934.51	367.00
934.81	359.00
935.11	365.00
935.41	356.00
935.71	361.00
936.01	358.00
936.31	346.00
936.61	348.00
936.91	350.00
937.21	355.00
937.51	361.00
937.81	361.00
938.11	342.00
938.41	349.00
938.70	347.00
939.00	347.00
939.30	357.00
939.60	343.00
939.90	336.00
940.20	353.00
940.50	341.00
940.80	345.00
941.10	344.00
941.39	361.00
941.69	346.00
941.99	429.00
942.29	334.00
942.59	347.00
942.89	348.00
943.18	343.00
943.48	333.00
943.78	351.00
944.08	333.00
944.38	335.00
944.68	355.00
944.97	347.00
945.27	342.00
945.57	336.00
945.87	335.00
946.16	336.00
946.46	337.00
946.76	332.00
947.06	333.00
947.35	338.00
947.65	329.00
947.95	325.00
948.25	331.00
948.54	330.00
948.84	332.00
949.14	334.00
949.44	342.00
949.73	327.00
950.03	333.00
950.33	329.00
950.62	332.00
950.92	338.00
951.22	342.00
951.51	332.00
951.81	339.00
952.11	327.00
952.40	341.00
952.70	341.00
953.00	326.00
953.29	326.00
953.59	320.00
953.89	323.00
954.18	324.00
954.48	318.00
954.77	318.00
955.07	328.00
955.37	320.00
955.66	358.00
955.96	335.00
956.25	322.00
956.55	337.00
956.85	332.00
957.14	327.00
957.44	329.00
957.73	325.00
958.03	331.00
958.32	329.00
958.62	331.00
958.91	323.00
959.21	321.00
959.50	326.00
959.80	335.00
960.09	321.00
960.39	334.00
960.68	327.00
960.98	324.00
961.27	323.00
961.57	325.00
961.86	322.00
962.16	329.00
962.45	316.00
962.75	323.00
963.04	318.00
963.34	324.00
963.63	361.00
963.93	318.00
964.22	317.00
964.51	309.00
964.81	318.00
965.10	403.00
965.40	348.00
965.69	333.00
965.98	320.00
966.28	312.00
966.57	315.00
966.87	309.00
967.16	324.00
967.45	316.00
967.75	314.00
968.04	324.00
968.33	323.00
968.63	315.00
968.92	317.00
969.21	323.00
969.51	312.00
969.80	330.00
970.09	320.00
970.39	316.00
970.68	315.00
970.97	360.00
971.27	320.00
971.56	318.00
971.85	333.00
972.14	313.00
972.44	318.00
972.73	311.00
973.02	316.00
973.32	308.00
973.61	314.00
973.90	316.00
974.19	310.00
974.48	320.00
974.78	319.00
975.07	651.00
975.36	329.00
975.65	312.00
975.95	321.00
976.24	312.00
976.53	320.00
976.82	312.00
977.11	318.00
977.40	315.00
977.70	321.00
977.99	315.00
978.28	323.00
978.57	315.00
978.86	316.00
979.15	326.00
979.45	311.00
979.74	325.00
980.03	311.00
980.32	306.00
980.61	316.00
980.90	313.00
981.19	315.00
981.48	311.00
981.77	311.00
982.07	315.00
982.36	313.00
982.65	309.00
982.94	317.00
983.23	323.00
983.52	312.00
983.81	322.00
984.10	309.00
984.39	326.00
984.68	312.00
984.97	327.00
985.26	315.00
985.55	315.00
985.84	310.00
986.13	305.00
986.42	313.00
986.71	313.00
987.00	316.00
987.29	319.00
987.58	363.00
987.87	318.00
988.16	309.00
988.45	312.00
988.74	315.00
989.03	317.00
989.32	306.00
989.61	316.00
989.90	321.00
990.19	321.00
990.48	311.00
990.76	310.00
991.05	313.00
991.34	325.00
991.63	313.00
991.92	314.00
992.21	325.00
992.50	395.00
992.79	407.00
993.08	316.00
993.36	306.00
993.65	314.00
993.94	310.00
994.23	311.00
994.52	319.00
994.81	320.00
995.09	312.00
995.38	303.00
995.67	311.00
995.96	310.00
996.25	319.00
996.54	310.00
996.82	310.00
997.11	309.00
997.40	316.00
997.69	305.00
997.97	312.00
998.26	308.00
998.55	401.00
998.84	350.00
999.12	314.00
999.41	311.00
999.70	324.00
999.99	311.00
1000.27	329.00
1000.56	313.00
1000.85	306.00
1001.14	319.00
1001.42	308.00
1001.71	307.00
1002.00	304.00
1002.28	305.00
1002.57	309.00
1002.86	305.00
1003.14	307.00
1003.43	306.00
1003.72	314.00
1004.00	323.00
1004.29	305.00
1004.58	328.00
1004.86	306.00
1005.15	301.00
1005.44	303.00
1005.72	302.00
1006.01	309.00
1006.29	307.00
1006.58	371.00
1006.87	310.00
1007.15	313.00
1007.44	305.00
1007.72	305.00
1008.01	306.00
1008.29	307.00
1008.58	307.00
1008.87	311.00
1009.15	302.00
1009.44	302.00
1009.72	311.00
1010.01	298.00
1010.29	305.00
1010.58	310.00
1010.86	305.00
1011.15	302.00
1011.43	296.00
1011.72	309.00
1012.00	310.00
1012.29	310.00
1012.57	311.00
1012.86	308.00
1013.14	304.00
1013.43	310.00
1013.71	303.00
1013.99	302.00
1014.28	309.00
1014.56	325.00
1014.85	300.00
1015.13	297.00
1015.42	313.00
1015.70	310.00
1015.98	309.00
1016.27	303.00
1016.55	304.00
1016.84	312.00
1017.12	301.00
1017.40	313.00
1017.69	309.00
1017.97	301.00
1018.26	308.00
1018.54	301.00
1018.82	307.00
1019.11	317.00
1019.39	312.00
1019.67	312.00
1019.96	299.00
1020.24	300.00
1020.52	313.00
1020.81	301.00
1021.09	309.00
1021.37	301.00
1021.65	314.00
1021.94	292.00
1022.22	321.00
1022.50	316.00
1022.79	308.00
1023.07	307.00
1023.35	316.00
1023.63	317.00
1023.92	311.00
1024.20	305.00
1024.48	401.00
1024.76	313.00
1025.04	306.00
1025.33	301.00
1025.61	308.00
